time,dcse.flange.phi,dcse.airGapDC.pin_ep.i,dcse.inertiaRotor.flange_b.tau,loadInertia.w,dcse.airGapDC.pin_ep.iˍt,dcse.la.i,loadInertia.phi
0,0,0,-0,0,50000,0,0
1e-06,4.419565078e-18,0.04998675234,-7.953530852e-06,1.767685496e-11,49973.50702,0.04998675234,4.419565078e-18
1.413915985e-05,1.758979783e-13,0.7043157119,-0.001579010001,4.970604853e-08,49626.71267,0.7043157119,1.758979783e-13
7.357172565e-05,1.265429974e-10,3.607789868,-0.04143168502,6.839981767e-06,48087.87129,3.607789868,1.265429974e-10
0.0001762311446,4.033781919e-09,8.412564756,-0.2252718717,9.029461548e-05,45541.33826,8.412564756,4.033781919e-09
0.0002959766533,3.091977705e-08,13.69648888,-0.5971296351,0.0004083046483,42740.84309,13.69648888,3.091977705e-08
0.0004465217111,1.529321168e-07,19.88090306,-1.258120802,0.001323351148,39463.03763,19.88090306,1.529321168e-07
0.0006216390556,5.448537984e-07,26.48054956,-2.232051021,0.003342474972,35965.027,26.48054956,5.448537984e-07
0.0008279464043,1.612560687e-06,33.50909062,-3.574171766,0.007316150734,32239.40161,33.50909062,1.612560687e-06
0.001063605586,4.100547455e-06,40.65118201,-5.260130355,0.01424084175,28453.03082,40.65118201,4.100547455e-06
0.001331620464,9.335654212e-06,47.75992157,-7.260681603,0.02542117156,24683.37693,47.75992157,9.335654212e-06
0.001631754188,1.937026583e-05,54.60858773,-9.492314853,0.04219110529,21050.11466,54.60858773,1.937026583e-05
0.001965270353,3.725870552e-05,61.04283389,-11.86095705,0.06595883761,17634.48188,61.04283389,3.725870552e-05
0.002331868153,6.711896678e-05,66.91700382,-14.25356587,0.09792072715,14513.13052,66.91700382,6.711896678e-05
0.002731021766,0.0001141971124,72.13624485,-16.56372178,0.1389937186,11735.87494,72.13624485,0.0001141971124
0.003160865265,0.0001846008001,76.64468717,-18.69887408,0.1896040583,9332.058551,76.64468717,0.0001846008001
0.003618815315,0.0002849650136,80.43554263,-20.59434755,0.2496794643,7305.235904,80.43554263,0.0002849650136
0.004101716968,0.0004219874263,83.54343225,-22.21660289,0.3186865072,5637.23356,83.54343225,0.0004219874263
0.004606287025,0.0006020441263,86.03383483,-23.56095581,0.3957699447,4293.684276,86.03383483,0.0006020441263
0.005129328992,0.0008308843262,87.98904083,-24.64411457,0.4798944999,3231.400555,87.98904083,0.0008308843262
0.005667826595,0.001113420188,89.49603418,-25.49563235,0.5699628688,2404.73387,89.49603418,0.001113420188
0.006219015842,0.00145363337,90.63808947,-26.15064059,0.6649071407,1769.980222,90.63808947,0.00145363337
0.006780369828,0.001854534999,91.48972575,-26.64456655,0.7637382892,1288.028843,91.48972575,0.001854534999
0.007349565642,0.002318166576,92.11452707,-27.00996171,0.8655679882,925.5077696,92.11452707,0.002318166576
0.007924434171,0.002845611033,92.56486363,-27.27497206,0.9696096275,654.9334755,92.56486363,0.002845611033
0.008502861063,0.003436950906,92.8827077,-27.46290986,1.075159156,454.2889093,92.8827077,0.003436950906
0.009082662311,0.004091152618,93.10101085,-27.5924969,1.181564982,306.307796,93.10101085,0.004091152618
0.009662463558,0.004807175459,93.2454517,-27.6785585,1.288380495,197.5070382,93.2454517,0.004807175459
0.01024226481,0.005585212701,93.33559715,-27.73251599,1.395460356,117.5472164,93.33559715,0.005585212701
0.01082206605,0.006425384965,93.38584926,-27.76283721,1.502697389,58.81348822,93.38584926,0.006425384965
0.0114018673,0.007327759335,93.40680659,-27.7757857,1.610012684,15.69854423,93.40680659,0.007327759335
0.01198166855,0.008292363504,93.40626713,-27.77598632,1.717348219,-15.92592334,93.40626713,0.008292363504
0.0125614698,0.009319196219,93.38996716,-27.76684945,1.824661384,-39.09876921,93.38996716,0.009319196219
0.01317792297,0.01047916781,93.36005432,-27.74969451,1.938698937,-56.96025453,93.36005432,0.01047916781
0.0138062774,0.01173385453,93.3199475,-27.72653939,2.054847619,-69.95771069,93.3199475,0.01173385453
0.0144668744,0.0131315804,93.27036642,-27.69784509,2.176835335,-79.5722279,93.27036642,0.0131315804
0.01515753701,0.01467903996,93.2128652,-27.66454608,2.304224664,-86.49529777,93.2128652,0.01467903996
0.01588857134,0.01641273731,93.14771299,-27.62682996,2.438878418,-91.41138452,93.14771299,0.01641273731
0.01666389015,0.0183589385,93.07543192,-27.5850293,2.58147323,-94.78760493,93.07543192,0.0183589385
0.01749168916,0.02055880745,92.99596782,-27.53914342,2.733465635,-97.01075925,92.99596782,0.02055880745
0.01837896738,0.02305631728,92.9092259,-27.48915,2.896080395,-98.374374,92.9092259,0.02305631728
0.01933494318,0.02590850749,92.81478449,-27.43484159,3.070934863,-99.10858456,92.81478449,0.02590850749
0.02036943724,0.02918306619,92.71207783,-27.37593315,3.259737769,-99.38803496,92.71207783,0.02918306619
0.02149380382,0.03296334244,92.60032936,-27.31202606,3.464454518,-99.34332818,92.60032936,0.03296334244
0.02271992283,0.03734774344,92.47867357,-27.24268045,3.687117479,-99.06919626,92.47867357,0.03734774344
0.02405905037,0.04244771028,92.34628883,-27.16749294,3.929612675,-98.63237735,92.34628883,0.04244771028
0.02551802765,0.04837316273,92.20278353,-27.08631584,4.19299365,-98.07939162,92.20278353,0.04837316273
0.02709650203,0.05521596775,92.04846686,-26.99940547,4.476991571,-97.44314751,92.04846686,0.05521596775
0.02878534567,0.06303272405,91.88448678,-26.90749061,4.779753728,-96.74795957,91.88448678,0.06303272405
0.03057020849,0.07184858145,91.71246235,-26.81155533,5.098508342,-96.01174087,91.71246235,0.07184858145
0.03243610864,0.08167174055,91.53402841,-26.7125781,5.430402234,-95.24716442,91.53402841,0.08167174055
0.03437005117,0.09250531375,91.35058565,-26.61139198,5.772970638,-94.4629355,91.35058565,0.09250531375
0.03636119292,0.1043500059,91.16329238,-26.50868211,6.124162334,-93.66524239,91.16329238,0.1043500059
0.03840061018,0.1172051874,90.97309413,-26.40500449,6.482293104,-92.85867927,90.97309413,0.1172051874
0.04048085637,0.1310684985,90.78077152,-26.30081462,6.845962658,-92.04682758,90.78077152,0.1310684985
0.04259566798,0.1459358801,90.58697278,-26.19648706,7.21399874,-91.23255903,90.58697278,0.1459358801
0.04473981024,0.1618022235,90.39223225,-26.09232725,7.585426366,-90.41818515,90.39223225,0.1618022235
0.04690889217,0.178661575,90.19699112,-25.98858415,7.959432275,-89.60557634,90.19699112,0.178661575
0.04909924731,0.1965075681,90.00161149,-25.88545913,8.33534132,-88.79623715,90.00161149,0.1965075681
0.05130781858,0.2153336864,89.80638951,-25.78311405,8.712594047,-87.99137112,89.80638951,0.2153336864
0.05353206452,0.2351335031,89.61156618,-25.68167798,9.090728379,-87.19193255,89.61156618,0.2351335031
0.05576987584,0.2559008314,89.41733671,-25.58125295,9.469363456,-86.3986708,89.41733671,0.2559008314
0.05801950558,0.2776298378,89.22385839,-25.48191876,9.84818615,-85.61216693,89.22385839,0.2776298378
0.06027950845,0.3003151001,89.03125728,-25.38373702,10.22693944,-84.83286464,89.03125728,0.3003151001
0.06254869049,0.3239516432,88.83963371,-25.28675452,10.6054128,-84.06109568,88.83963371,0.3239516432
0.06482606546,0.3485349372,88.649067,-25.19100597,10.98343391,-83.29710124,88.649067,0.3485349372
0.06711081991,0.3740608977,88.45961924,-25.09651633,11.36086212,-82.54104907,88.45961924,0.3740608977
0.06940228238,0.4005258532,88.27133846,-25.00330266,11.73758258,-81.79304798,88.27133846,0.4005258532
0.07169989942,0.4279265286,88.08426127,-24.91137564,12.11350183,-81.05315925,88.08426127,0.4279265286
0.07400321415,0.4562600022,87.89841495,-24.82074083,12.48854379,-80.32140633,87.89841495,0.4562600022
0.07631185034,0.4855236868,87.7138192,-24.73139965,12.86264682,-79.59778226,87.7138192,0.4855236868
0.07862549669,0.515715276,87.53048766,-24.64335029,13.23576081,-78.88225638,87.53048766,0.515715276
0.08094389699,0.5468327344,87.34842894,-24.55658827,13.60784542,-78.1747789,87.34842894,0.5468327344
0.08326683927,0.5788742518,87.16764767,-24.47110706,13.97886804,-77.47528535,87.16764767,0.5788742518
0.08559414825,0.6118382183,86.98814528,-24.38689848,14.34880251,-76.78369985,86.98814528,0.6118382183
0.0879256792,0.6457232045,86.80992055,-24.30395305,14.71762791,-76.09993762,86.80992055,0.6457232045
0.09026131193,0.6805279281,86.63297024,-24.22226032,15.08532758,-75.42390735,86.63297024,0.6805279281
0.09260094682,0.7162512401,86.45728943,-24.14180905,15.45188835,-74.75551285,86.45728943,0.7162512401
0.09494450152,0.7528921103,86.28287184,-24.0625874,15.81729997,-74.09465429,86.28287184,0.7528921103
0.09729190688,0.7904495943,86.10971022,-23.98458314,16.18155439,-73.44122968,86.10971022,0.7904495943
0.09964310573,0.8289228386,85.93779646,-23.90778368,16.54464557,-72.79513538,85.93779646,0.8289228386
0.1002588383,0.8391391067,85.89469321,-23.88880069,16.63944425,-61.24791397,85.89469321,0.8391391067
0.1008745708,0.8494137122,85.86396168,-23.87661298,16.73414003,-39.84676521,85.86396168,0.8494137122
0.1014903034,0.8597466008,85.84430769,-23.87050728,16.82876104,-24.88300252,85.84430769,0.8597466008
0.1021060359,0.8701377331,85.83239941,-23.86865979,16.92332807,-14.4195168,85.83239941,0.8701377331
0.1027217685,0.8805870806,85.82590758,-23.86979672,17.01785566,-7.102170125,85.82590758,0.8805870806
0.103337501,0.8910946223,85.82320382,-23.87302818,17.1123539,-1.984331332,85.82320382,0.8910946223
0.1038704433,0.900236311,85.82303441,-23.87703137,17.1941279,1.18548986,85.82303441,0.900236311
0.1044033857,0.9094215767,85.82431816,-23.88184736,17.27588846,3.512441246,85.82431816,0.9094215767
0.1049480795,0.9188544022,85.82673031,-23.88739023,17.35944044,5.253099893,85.82673031,0.9188544022
0.1055138246,0.9286999656,85.83009338,-23.89363705,17.44621123,6.564458221,85.83009338,0.9286999656
0.1061029453,0.9390045027,85.83426513,-23.90053091,17.53655763,7.542821643,85.83426513,0.9390045027
0.1067223059,0.9498953692,85.83917511,-23.90809036,17.63153226,8.269087792,85.83917511,0.9498953692
0.1073766222,0.96146479,85.84477075,-23.91632802,17.73185769,8.801443078,85.84477075,0.96146479
0.1080722359,0.9738364068,85.85103588,-23.92529043,17.83850539,9.186423612,85.85103588,0.9738364068
0.108815469,0.9871369164,85.85797234,-23.93503531,17.95244327,9.460139229,85.85797234,0.9871369164
0.1096140288,1.001521892,85.86560878,-23.94564794,18.07485097,9.651317845,85.86560878,1.001521892
0.1104768268,1.017173887,85.87399689,-23.95723826,18.20709202,9.78251077,85.87399689,1.017173887
0.1114148362,1.034319733,85.88321797,-23.96995215,18.35084493,9.871332214,85.88321797,1.034319733
0.1124416676,1.053243741,85.89338742,-23.98397985,18.50819114,9.931310975,85.89338742,1.053243741
0.1135746259,1.074311084,85.90466436,-23.99957162,18.68177642,9.972652232,85.90466436,1.074311084
0.1148361106,1.097999754,85.91726499,-24.01705931,18.87502452,10.00289718,85.91726499,1.097999754
0.1162556906,1.124948693,85.93148314,-24.03688912,19.09245364,10.02752185,85.93148314,1.124948693
0.1178727834,1.156023192,85.94771757,-24.05966569,19.34008468,10.05048226,85.94771757,1.156023192
0.1197395091,1.192392582,85.96650185,-24.08620306,19.62587452,10.0747098,85.96650185,1.192392582
0.1219193305,1.235537127,85.98849318,-24.11752139,19.95950235,10.10250423,85.98849318,1.235537127
0.1244671935,1.286887841,86.01427496,-24.15457768,20.34932364,10.13562756,86.01427496,1.286887841
0.1273784616,1.346778326,86.04383921,-24.19751389,20.7945578,10.17485031,86.04383921,1.346778326
0.1305860572,1.414265287,86.07654777,-24.24555598,21.28486765,10.219924,86.07654777,1.414265287
0.1340340124,1.488562758,86.11187228,-24.29805992,21.81162015,10.27057701,86.11187228,1.488562758
0.1376836846,1.56918496,86.14945811,-24.35461052,22.36883541,10.32667162,86.14945811,1.56918496
0.141502039,1.655709447,86.18900535,-24.41485044,22.95139481,10.38807048,86.18900535,1.655709447
0.1454594608,1.747731739,86.23024602,-24.47844763,23.55470751,10.4546117,86.23024602,1.747731739
0.1495292802,1.844856831,86.27293884,-24.54508868,24.17463875,10.52610557,86.27293884,1.844856831
0.1536878704,1.946705408,86.31687,-24.61448217,24.80752529,10.60234215,86.31687,1.946705408
0.1579148359,2.052924473,86.36185527,-24.68636459,25.45020406,10.68310309,86.36185527,2.052924473
0.1621926092,2.163184652,86.40773591,-24.76049701,26.0999505,10.76816398,86.40773591,2.163184652
0.166506445,2.277187569,86.45437906,-24.83666859,26.75447686,10.85730422,86.45437906,2.277187569
0.1708440142,2.394662977,86.50167386,-24.91469321,27.41186983,10.95030892,86.50167386,2.394662977
0.1751951535,2.515369133,86.54952927,-24.99440848,28.07055156,11.04697277,86.54952927,2.515369133
0.1795515621,2.639090964,86.59787129,-25.07567339,28.72923268,11.14710174,86.59787129,2.639090964
0.1839079708,2.765680489,86.64665675,-25.15839372,29.3870876,11.25054887,86.64665675,2.765680489
0.1882643794,2.89513405,86.69590004,-25.24257072,30.04408936,11.35728199,86.69590004,2.89513405
0.1926207881,3.027447873,86.7456154,-25.32820537,30.70021143,11.46726863,86.7456154,3.027447873
0.1969771967,3.162618068,86.79581694,-25.41529848,31.35542775,11.58047609,86.79581694,3.162618068
0.2013336054,3.300640634,86.84651861,-25.50385065,32.0097127,11.69687144,86.84651861,3.300640634
0.205690014,3.441511458,86.89773423,-25.59386227,32.66304114,11.81642157,86.89773423,3.441511458
0.2100464227,3.585226319,86.94947747,-25.68533352,33.31538837,11.93909315,86.94947747,3.585226319
0.2144028313,3.73178089,87.00176186,-25.77826441,33.96673016,12.06485269,87.00176186,3.73178089
0.21875924,3.881170738,87.05460077,-25.87265476,34.61704277,12.19366655,87.05460077,3.881170738
0.2231156486,4.03339133,87.10800744,-25.9685042,35.2663029,12.32550097,87.10800744,4.03339133
0.2274720572,4.188438031,87.16199495,-26.0658122,35.91448773,12.46032204,87.16199495,4.188438031
0.2318284659,4.346306106,87.21657624,-26.16457804,36.56157491,12.59809576,87.21657624,4.346306106
0.2361848745,4.506990727,87.2717641,-26.26480086,37.20754257,12.73878806,87.2717641,4.506990727
0.2405412832,4.67048697,87.32757117,-26.36647961,37.8523693,12.88236477,87.32757117,4.67048697
0.2448976918,4.836789818,87.38400993,-26.46961312,38.49603418,13.02879167,87.38400993,4.836789818
0.2492541005,5.005894166,87.44109274,-26.57420004,39.13851677,13.1780345,87.44109274,5.005894166
0.2536105091,5.177794818,87.49883179,-26.68023889,39.77979709,13.33005898,87.49883179,5.177794818
0.2579669178,5.352486496,87.55723911,-26.78772806,40.41985566,13.48483077,87.55723911,5.352486496
0.2623233264,5.529963834,87.6163266,-26.8966658,41.05867345,13.64231558,87.6163266,5.529963834
0.2666797351,5.710221387,87.67610601,-27.00705023,41.69623195,13.80247909,87.67610601,5.710221387
0.2710361437,5.89325363,87.73658893,-27.11887935,42.33251309,13.96528701,87.73658893,5.89325363
0.2753925524,6.079054959,87.7977868,-27.23215105,42.96749931,14.13070508,87.7977868,6.079054959
0.279748961,6.267619696,87.85971093,-27.3468631,43.60117351,14.29869907,87.85971093,6.267619696
0.2841053697,6.458942088,87.92237245,-27.46301318,44.23351908,14.46923483,87.92237245,6.458942088
0.2884617783,6.653016313,87.98578238,-27.58059885,44.8645199,14.64227824,87.98578238,6.653016313
0.292818187,6.849836478,88.04995155,-27.69961759,45.4941603,14.81779527,88.04995155,6.849836478
0.2971745956,7.049396622,88.11489067,-27.82006678,46.12242511,14.99575196,88.11489067,7.049396622
0.3015310043,7.251690722,88.1806103,-27.94194374,46.74929965,15.17611446,88.1806103,7.251690722
0.3058874129,7.456712689,88.24712084,-28.06524568,47.37476968,15.35884898,88.24712084,7.456712689
0.3102438216,7.664456375,88.31443255,-28.18996976,47.99882147,15.54392188,88.31443255,7.664456375
0.3146002302,7.874915573,88.38255555,-28.31611307,48.62144176,15.7312996,88.38255555,7.874915573
0.3189566389,8.088084017,88.4514998,-28.44367261,49.24261776,15.92094871,88.4514998,8.088084017
0.3233130475,8.303955389,88.52127513,-28.57264537,49.86233714,16.11283592,88.52127513,8.303955389
0.3276694562,8.522523318,88.59189121,-28.70302825,50.48058806,16.30692807,88.59189121,8.522523318
0.3320258648,8.743781381,88.66335758,-28.83481811,51.09735914,16.50319212,88.66335758,8.743781381
0.3363822735,8.967723108,88.73568362,-28.96801178,51.71263948,16.70159519,88.73568362,8.967723108
0.3407386821,9.194341981,88.80887859,-29.10260604,52.32641864,16.90210458,88.80887859,9.194341981
0.3450950908,9.423631439,88.88295159,-29.23859766,52.93868664,17.10468769,88.88295159,9.423631439
0.3494514994,9.655584877,88.95791159,-29.37598335,53.54943396,17.30931214,88.95791159,9.655584877
0.3538079081,9.890195652,89.0337674,-29.51475981,54.15865157,17.51594567,89.0337674,9.890195652
0.3581643167,10.12745708,89.1105277,-29.65492374,54.76633087,17.72455622,89.1105277,10.12745708
0.3625207254,10.36736244,89.18820105,-29.79647181,55.37246371,17.93511189,89.18820105,10.36736244
0.366877134,10.60990498,89.26679585,-29.93940067,55.97704243,18.14758096,89.26679585,10.60990498
0.3712335427,10.85507792,89.34632036,-30.083707,56.58005979,18.3619319,89.34632036,10.85507792
0.3755899513,11.10287443,89.42678271,-30.22938745,57.181509,18.57813336,89.42678271,11.10287443
0.3799463599,11.35328767,89.50819089,-30.37643869,57.78138374,18.79615417,89.50819089,11.35328767
0.3843027686,11.60631077,89.59055277,-30.52485739,58.37967812,19.01596336,89.59055277,11.60631077
0.3886591772,11.86193684,89.67387607,-30.67464024,58.97638668,19.23753014,89.67387607,11.86193684
0.3930155859,12.12015895,89.75816838,-30.82578395,59.57150442,19.46082393,89.75816838,12.12015895
0.3973719945,12.38097016,89.84343716,-30.97828524,60.16502676,19.68581433,89.84343716,12.38097016
0.4017284032,12.64436351,89.92968972,-31.13214087,60.75694955,19.91247114,89.92968972,12.64436351
0.4060848118,12.91033203,90.01693327,-31.28734763,61.34726908,20.14076436,90.01693327,12.91033203
0.4104412205,13.17886872,90.10517487,-31.44390232,61.93598205,20.3706642,90.10517487,13.17886872
0.4147976291,13.44996659,90.19442145,-31.60180182,62.52308561,20.60214105,90.19442145,13.44996659
0.4191540378,13.7236186,90.28467982,-31.761043,63.10857729,20.83516552,90.28467982,13.7236186
0.4235104464,13.99981775,90.37595666,-31.92162282,63.69245507,21.0697084,90.37595666,13.99981775
0.4278668551,14.27855698,90.46825852,-32.08353826,64.27471731,21.30574069,90.46825852,14.27855698
0.4322232637,14.55982927,90.56159182,-32.24678637,64.85536281,21.54323361,90.56159182,14.55982927
0.4365796724,14.84362756,90.65596287,-32.41136423,65.43439076,21.78215854,90.65596287,14.84362756
0.440936081,15.12994481,90.75137785,-32.57726902,66.01180073,22.0224871,90.75137785,15.12994481
0.4452924897,15.41877397,90.84784279,-32.74449793,66.58759273,22.26419109,90.84784279,15.41877397
0.4496488983,15.71010799,90.94536365,-32.91304826,67.16176712,22.50724251,90.94536365,15.71010799
0.454005307,16.00393983,91.04394622,-33.08291736,67.73432468,22.75161356,91.04394622,16.00393983
0.4583617156,16.30026244,91.14359619,-33.25410264,68.30526655,22.99727664,91.14359619,16.30026244
0.4627181243,16.59906879,91.24431914,-33.4266016,68.87459427,23.24420434,91.24431914,16.59906879
0.4670745329,16.90035186,91.34612052,-33.60041181,69.44230975,23.49236945,91.34612052,16.90035186
0.4714309416,17.20410461,91.44900564,-33.77553091,70.00841527,23.74174494,91.44900564,17.20410461
0.4757873502,17.51032005,91.55297974,-33.95195665,70.57291348,23.99230399,91.55297974,17.51032005
0.4801437589,17.81899118,91.6580479,-34.12968683,71.13580739,24.24401997,91.6580479,17.81899118
0.4845001675,18.13011102,91.76421511,-34.30871936,71.69710039,24.49686642,91.76421511,18.13011102
0.4888565762,18.4436726,91.87148625,-34.48905222,72.25679619,24.75081707,91.87148625,18.4436726
0.4932129848,18.75966897,91.97986605,-34.67068351,72.81489887,25.00584586,91.97986605,18.75966897
0.4975693935,19.0780932,92.08935916,-34.85361139,73.37141287,25.26192688,92.08935916,19.0780932
0.5019258021,19.39893839,92.19997011,-35.03783413,73.92634296,25.51903441,92.19997011,19.39893839
0.5062822108,19.72219763,92.31170332,-35.22335011,74.47969423,25.77714291,92.31170332,19.72219763
0.5106386194,20.04786407,92.42456308,-35.41015779,75.03147213,26.03622703,92.42456308,20.04786407
0.5149950281,20.37593086,92.53855361,-35.59825573,75.58168243,26.29626156,92.53855361,20.37593086
